ref-hip,ref-knee,ref-ankle,link-hip,link-knee,link-ankle,motor-hip,motor-knee,motor-ankle,tau-m1,tau-m2,tau-m3,tau-dyn-1,tau-dyn-2,tau-dyn-3
-0.0710371,-0.154022,0.139999,-0.0614551,-0.152008,0.137147,-0.066057,-0.153542,0.138681,-0.0558,0.0309,0.0588,-1.5,-1.5,0.343379,0.617077,0.189739,0.0197952,-1.97954,-1.60167,-0.0517265
-0.0713703,-0.154157,0.140465,-0.0614551,-0.152008,0.137147,-0.066057,-0.153542,0.138681,-0.054,0.0288,0.0609,-0.355705,-0.17361,0.0912785,0.64796,0.203192,0.0213102,-1.95483,-1.5936,-0.051272
-0.0717025,-0.154293,0.14093,-0.0614551,-0.152008,0.137147,-0.066057,-0.153542,0.138681,-0.054,0.03,0.06,-0.355448,-0.173836,0.0923011,0.678735,0.216595,0.0228197,-1.93021,-1.58555,-0.0508193
-0.0720337,-0.154431,0.141395,-0.0614551,-0.152008,0.137147,-0.066057,-0.153542,0.138681,-0.2628,-0.1719,0.1248,-0.353886,-0.174082,0.0963215,0.709395,0.229946,0.0243233,-1.90568,-1.57754,-0.0503682
-0.072364,-0.15457,0.141859,-0.0614551,-0.152008,0.137147,-0.066057,-0.153542,0.138681,-0.642,-0.5298,0.2298,-0.35158,-0.173446,0.0803016,0.739932,0.243242,0.0258206,-1.88125,-1.56957,-0.0499185
-0.0726933,-0.15471,0.142322,-0.061503,-0.152056,0.137147,-0.066105,-0.15359,0.138681,-0.2709,-0.093,0.066,-0.336064,-0.159806,0.068395,0.770336,0.256476,0.0273114,-1.85824,-1.56247,-0.0495182
-0.0730215,-0.154852,0.142785,-0.0615989,-0.150666,0.137195,-0.0662009,-0.153734,0.138729,-0.342,-0.1599,0.0819,-0.286681,0.202846,0.0678831,0.800666,0.269741,0.0287965,-1.82625,-1.54372,-0.0480816
-0.0733486,-0.154995,0.143247,-0.0617907,-0.150857,0.137243,-0.0663926,-0.153925,0.138777,-0.3498,-0.174,0.0939,-0.297083,-0.107119,-0.109127,0.830783,0.28284,0.030273,-1.8069,-1.53955,-0.0477226
-0.0736747,-0.15514,0.143708,-0.0605443,-0.151145,0.137339,-0.0666802,-0.154213,0.138873,-0.327,-0.159,0.0669,0.165261,-0.0744118,0.0465133,0.860742,0.295865,0.0317419,-1.75418,-1.52327,-0.0462478
-0.0739997,-0.155285,0.144169,-0.0609278,-0.151529,0.137435,-0.0670637,-0.154596,0.138969,-0.2799,0.015,0.0558,-0.205519,-0.0888626,0.0509016,0.890534,0.30881,0.0332026,-1.73803,-1.52327,-0.0456364
-0.0743236,-0.155433,0.144629,-0.0614072,-0.150474,0.137531,-0.0675431,-0.155076,0.139065,-0.282,0.0759,-0.003,-0.177385,0.254775,0.0605832,0.920231,0.321779,0.034656,-1.71945,-1.5131,-0.044765
-0.0746464,-0.155581,0.145088,-0.0621262,-0.151049,0.137627,-0.0682621,-0.155651,0.139161,-0.0549,-0.1059,-0.039,-0.163643,-0.0590729,-0.106788,0.94967,0.334558,0.0360993,-1.71287,-1.51897,-0.0444912
-0.074968,-0.155731,0.145546,-0.0627973,-0.151576,0.137723,-0.0689333,-0.156178,0.139257,-0.0459,-0.087,0.0288,-0.155754,-0.0693325,0.0616639,0.978926,0.347257,0.0375335,-1.70571,-1.5255,-0.0441124
-0.0752884,-0.155883,0.146004,-0.0635164,-0.152104,0.137771,-0.0696523,-0.156706,0.139305,-0.222,0.0468,0.0519,-0.167796,-0.072128,0.0733432,1.00799,0.35987,0.038958,-1.70165,-1.53147,-0.0441479
-0.0756077,-0.156036,0.146461,-0.0642834,-0.152679,0.137819,-0.0704193,-0.157281,0.139353,-0.1779,0.1209,-0.0258,-0.170721,-0.068627,0.0703031,1.03685,0.37239,0.0403726,-1.70036,-1.53746,-0.044488
-0.0759258,-0.15619,0.146916,-0.0651942,-0.153158,0.137867,-0.0713301,-0.15776,0.139401,-0.1509,-0.078,-0.024,-0.161874,-0.0842113,0.0774208,1.06551,0.384826,0.0417769,-1.70395,-1.54338,-0.0451828
-0.0762426,-0.156346,0.147371,-0.0659132,-0.153542,0.137867,-0.0720492,-0.158144,0.139401,-0.1539,-0.0798,0.0408,-0.176426,-0.0902041,0.0911459,1.09396,0.397173,0.0431706,-1.7033,-1.54633,-0.0458372
-0.0765582,-0.156503,0.147825,-0.0666802,-0.153925,0.137867,-0.0728161,-0.158527,0.139401,-0.1659,-0.0699,0.0699,-0.170624,-0.0896177,0.0826953,1.12219,0.409422,0.0445534,-1.70389,-1.54929,-0.0465595
-0.0768726,-0.156662,0.148278,-0.067591,-0.154261,0.137819,-0.073727,-0.158863,0.139353,-0.1638,-0.0819,0.0648,-0.154366,-0.0956194,0.07644,1.1502,0.421573,0.0459247,-1.70767,-1.55295,-0.0474041
-0.0771856,-0.156822,0.14873,-0.0683101,-0.154549,0.137819,-0.074446,-0.159151,0.139353,-0.171,-0.0858,0.0819,-0.159844,-0.0912956,0.0656948,1.17797,0.433624,0.0472845,-1.70547,-1.55445,-0.0478843
-0.0774974,-0.156984,0.149181,-0.0692209,-0.154836,0.137819,-0.0753568,-0.159438,0.139353,-0.177,-0.0849,0.0819,-0.13794,-0.0929772,0.0661391,1.2055,0.445568,0.0486322,-1.70766,-1.55773,-0.0484745
-0.0778079,-0.157147,0.149631,-0.0699399,-0.155076,0.137819,-0.0760759,-0.159678,0.139353,-0.1548,-0.0909,0.0798,-0.144216,-0.0905481,0.0741238,1.23278,0.457406,0.0499676,-1.70441,-1.559,-0.0487941
-0.078117,-0.157312,0.15008,-0.0707069,-0.155268,0.137867,-0.0768428,-0.15987,0.139401,-0.1509,-0.096,0.063,-0.13233,-0.0933226,0.0774542,1.25982,0.469135,0.0512905,-1.70162,-1.56035,-0.0490215
-0.0784248,-0.157478,0.150527,-0.0700837,-0.155555,0.137914,-0.0777536,-0.160157,0.139448,-0.144,-0.084,0.0639,0.311249,-0.0546578,0.0863614,1.28658,0.480739,0.0526001,-1.66765,-1.54566,-0.0487623
-0.0787313,-0.157645,0.150974,-0.0708507,-0.155747,0.137962,-0.0785206,-0.160349,0.139496,-0.1389,-0.0858,0.069,-0.0764623,-0.0889492,0.0889003,1.31308,0.492233,0.0538963,-1.66481,-1.54741,-0.0489181
-0.0790364,-0.157815,0.151419,-0.0715698,-0.155987,0.13801,-0.0792397,-0.160589,0.139544,-0.1338,-0.0879,0.069,-0.0756787,-0.0840739,0.0934396,1.33929,0.5036,0.0551787,-1.66146,-1.54917,-0.0490853
-0.07934,-0.157985,0.151864,-0.0725285,-0.156274,0.138106,-0.0801984,-0.160876,0.13964,0.1368,-0.063,0.0789,-0.0509658,-0.0822224,0.0968279,1.36522,0.514838,0.056447,-1.66403,-1.55341,-0.0494147
-0.0796423,-0.158157,0.152307,-0.0732476,-0.156514,0.138202,-0.0809175,-0.161116,0.139736,0.159,-0.0618,0.0849,-0.066395,-0.0833889,0.0950143,1.39086,0.525951,0.0577009,-1.66122,-1.55489,-0.0496022
-0.0799431,-0.158331,0.152749,-0.0741584,-0.156802,0.138298,-0.0818283,-0.161404,0.139832,-0.1098,-0.0948,0.0939,-0.0609432,-0.0794417,0.0947474,1.4162,0.536929,0.0589398,-1.66376,-1.5571,-0.0501334
-0.0802425,-0.158506,0.153189,-0.0749254,-0.157089,0.138394,-0.0825953,-0.161691,0.139928,-0.0588,-0.075,0.093,-0.0811576,-0.0764321,0.0959658,1.44123,0.547773,0.0601636,-1.66381,-1.55706,-0.0507271
-0.0805405,-0.158683,0.153629,-0.0755486,-0.157329,0.138442,-0.0832185,-0.161931,0.139976,-0.0579,-0.0828,0.0939,-0.0866844,-0.0792831,0.0968794,1.46595,0.558483,0.0613718,-1.66052,-1.55592,-0.0511896
-0.0808369,-0.158861,0.154067,-0.0760759,-0.157617,0.138538,-0.0837458,-0.162218,0.140072,-0.0738,-0.0819,0.0939,-0.0932309,-0.0735707,0.096787,1.49035,0.569049,0.0625642,-1.65563,-1.55457,-0.0515746
-0.0811319,-0.159041,0.154504,-0.076699,-0.157904,0.138681,-0.0843689,-0.162506,0.140215,-0.075,-0.0768,0.093,-0.0864726,-0.0743104,0.094489,1.51443,0.579473,0.0637405,-1.65328,-1.55409,-0.0520077
-0.0814254,-0.159222,0.154939,-0.0771784,-0.158144,0.138777,-0.0848483,-0.162746,0.140311,-0.093,-0.075,0.0909,-0.0872903,-0.0777153,0.101012,1.53818,0.589754,0.0649003,-1.64745,-1.55282,-0.0522661
-0.0817173,-0.159405,0.155373,-0.0776098,-0.158431,0.138921,-0.0852797,-0.163033,0.140455,-0.0909,-0.072,0.0918,-0.0867554,-0.0725274,0.0995487,1.56158,0.599883,0.0660433,-1.64098,-1.55187,-0.0524534
-0.0820077,-0.159589,0.155806,-0.0780892,-0.158671,0.139065,-0.0857591,-0.163273,0.140599,-0.0888,-0.0699,0.0879,-0.0802961,-0.0775714,0.100208,1.58464,0.609865,0.0671692,-1.6356,-1.5511,-0.0526455
-0.0822966,-0.159775,0.156237,-0.0784727,-0.158911,0.139209,-0.0861426,-0.163513,0.140743,-0.0858,-0.078,0.096,-0.0797278,-0.0762418,0.102666,1.60736,0.619693,0.0682776,-1.62808,-1.54997,-0.0527163
-0.0825839,-0.159963,0.156667,-0.0788562,-0.159151,0.139353,-0.0865261,-0.163752,0.140887,-0.0879,-0.0798,0.0978,-0.0745596,-0.0763743,0.0968488,1.62971,0.629364,0.0693682,-1.62076,-1.5491,-0.0527684
-0.0828696,-0.160152,0.157096,-0.0793356,-0.159438,0.139544,-0.0870055,-0.16404,0.141078,-0.0849,-0.0708,0.0999,-0.0650022,-0.0734155,0.0965477,1.65169,0.638871,0.0704407,-1.61627,-1.54955,-0.0528942
-0.0831537,-0.160342,0.157523,-0.0798149,-0.159774,0.139736,-0.0874848,-0.164376,0.14127,-0.0768,-0.0798,0.099,-0.0625026,-0.0684917,0.0941692,1.6733,0.64821,0.0714947,-1.61238,-1.55053,-0.0530514
-0.0834362,-0.160535,0.157948,-0.0801984,-0.160013,0.13988,-0.0878683,-0.164615,0.141414,-0.0789,-0.0759,0.0978,-0.0641818,-0.0752331,0.094472,1.69455,0.657393,0.0725301,-1.60583,-1.55012,-0.0530927
-0.0837171,-0.160728,0.158372,-0.0805819,-0.160253,0.14012,-0.0882518,-0.164855,0.141654,-0.069,-0.075,0.0879,-0.0621563,-0.0754834,0.0929319,1.71541,0.666411,0.0735465,-1.59957,-1.5497,-0.0530748
-0.0839964,-0.160924,0.158795,-0.0809654,-0.160541,0.140263,-0.0886353,-0.165143,0.141797,-0.0639,-0.0768,0.0948,-0.0624537,-0.0704005,0.0959367,1.73587,0.675251,0.0745435,-1.59401,-1.54983,-0.0531695
-0.084274,-0.161121,0.159216,-0.081301,-0.16078,0.140455,-0.0889709,-0.165382,0.141989,-0.0678,-0.0699,0.1008,-0.0640444,-0.0744566,0.0980485,1.75595,0.683925,0.0755209,-1.58737,-1.54921,-0.0531763
-0.0845499,-0.16132,0.159635,-0.0816365,-0.16102,0.140695,-0.0893064,-0.165622,0.142229,-0.0699,-0.078,0.0948,-0.0632544,-0.073873,0.095457,1.77563,0.692423,0.0764785,-1.58098,-1.5486,-0.0531518
-0.0848242,-0.16152,0.160053,-0.0819721,-0.161212,0.140887,-0.089642,-0.165814,0.142421,-0.063,-0.078,0.0939,-0.0616019,-0.0791229,0.0996771,1.7949,0.700749,0.0774158,-1.57472,-1.54775,-0.0531483
-0.0850968,-0.161722,0.160469,-0.0822597,-0.161451,0.141078,-0.0899296,-0.166053,0.142612,-0.0648,-0.0738,0.096,-0.0664414,-0.0740266,0.100283,1.81376,0.708889,0.0783326,-1.56804,-1.54695,-0.0531548
-0.0853677,-0.161925,0.160884,-0.0825473,-0.161691,0.141318,-0.0902172,-0.166293,0.142852,-0.0708,-0.075,0.096,-0.0657682,-0.0739979,0.101349,1.8322,0.716847,0.0792287,-1.56166,-1.54622,-0.0531316
-0.0856369,-0.16213,0.161297,-0.0828829,-0.161931,0.141558,-0.0905528,-0.166533,0.143092,-0.066,-0.0768,0.0948,-0.0629415,-0.0751428,0.101916,1.85022,0.72462,0.0801037,-1.55682,-1.54597,-0.0531669
-0.0859043,-0.162337,0.161708,-0.0831705,-0.162171,0.141845,-0.0908404,-0.166772,0.143379,-0.066,-0.0729,0.099,-0.0638108,-0.0746655,0.0979538,1.86781,0.732206,0.0809574,-1.55112,-1.54545,-0.0531221
-0.0861701,-0.162545,0.162118,-0.0835061,-0.16241,0.142037,-0.091176,-0.167012,0.143571,-0.069,-0.0699,0.105,-0.0611083,-0.0756183,0.101481,1.88497,0.739601,0.0817895,-1.547,-1.54551,-0.0532018
-0.086434,-0.162755,0.162526,-0.0837458,-0.16265,0.142277,-0.0914157,-0.167252,0.143811,-0.066,-0.0729,0.099,-0.0665633,-0.0740084,0.102475,1.90168,0.746805,0.0825997,-1.54088,-1.54488,-0.0531647
-0.0866963,-0.162967,0.162932,-0.0839854,-0.162842,0.142564,-0.0916554,-0.167444,0.144098,-0.0648,-0.072,0.093,-0.0657501,-0.0787626,0.0983924,1.91796,0.75382,0.0833879,-1.53477,-1.5439,-0.0530677
-0.0869567,-0.16318,0.163337,-0.0826912,-0.163081,0.142804,-0.091895,-0.167683,0.144338,-0.0618,-0.0759,0.099,0.357254,-0.0503929,0.101802,1.93378,0.760634,0.0841536,-1.49532,-1.5294,-0.0521519
-0.0872154,-0.163395,0.163739,-0.0829308,-0.163321,0.143044,-0.0921347,-0.167923,0.144578,-0.063,-0.0738,0.0978,-0.026149,-0.0728793,0.107751,1.94915,0.767248,0.0848967,-1.49022,-1.52923,-0.0521173
-0.0874723,-0.163612,0.16414,-0.0831226,-0.163513,0.143235,-0.0923265,-0.168115,0.144769,-0.066,-0.0729,0.099,-0.0279617,-0.0767389,0.103795,1.96407,0.773667,0.0856169,-1.48402,-1.52842,-0.0520483
-0.0877274,-0.16383,0.16454,-0.0833623,-0.163752,0.143475,-0.0925662,-0.168354,0.145009,0.0999,-0.057,0.099,-0.0251145,-0.0736077,0.104447,1.97852,0.779878,0.0863139,-1.47962,-1.5285,-0.0520232
-0.0879807,-0.16405,0.164937,-0.083554,-0.163944,0.143715,-0.0927579,-0.168546,0.145249,0.2028,-0.0549,0.0948,-0.0297911,-0.0773896,0.106536,1.9925,0.78589,0.0869877,-1.47418,-1.52787,-0.0519399
-0.0882322,-0.164271,0.165333,-0.0836978,-0.164136,0.144002,-0.0929017,-0.168738,0.145536,-0.0399,-0.069,0.0999,-0.0408992,-0.077524,0.106025,2.00601,0.791697,0.087638,-1.4682,-1.52687,-0.0518227
-0.0884818,-0.164495,0.165727,-0.0838416,-0.164376,0.144242,-0.0930455,-0.168978,0.145776,-0.0279,-0.0738,0.0999,-0.0546042,-0.0748431,0.105793,2.01904,0.797288,0.0882643,-1.46339,-1.52647,-0.0518281
-0.0887296,-0.16472,0.166119,-0.0839375,-0.164567,0.144482,-0.0931414,-0.169169,0.146016,-0.0228,-0.0678,0.1029,-0.0574258,-0.0784783,0.107821,2.03159,0.802674,0.0888666,-1.45737,-1.52549,-0.0517442
-0.0889756,-0.164946,0.166509,-0.0839854,-0.164807,0.144769,-0.0931893,-0.169409,0.146303,-0.0288,-0.078,0.105,-0.0626032,-0.0737549,0.102129,2.04365,0.807843,0.0894446,-1.45088,-1.52467,-0.0516145
-0.0892197,-0.165174,0.166897,-0.0839854,-0.164999,0.145009,-0.0931893,-0.169601,0.146543,-0.0489,-0.066,0.1029,-0.0667091,-0.0781939,0.102545,2.05522,0.812802,0.0899982,-1.44328,-1.52327,-0.0514465
-0.089462,-0.165404,0.167284,-0.0839854,-0.165238,0.145345,-0.0931893,-0.16984,0.146879,-0.0528,-0.075,0.1008,-0.0646471,-0.073838,0.104608,2.0663,0.817541,0.0905271,-1.43618,-1.52227,-0.0512325
-0.0897024,-0.165636,0.167669,-0.0839375,-0.165526,0.14568,-0.0931414,-0.170128,0.147214,-0.0618,-0.0699,0.099,-0.065549,-0.0694655,0.102891,2.07687,0.822057,0.091031,-1.42853,-1.5213,-0.0510149
-0.089941,-0.165869,0.168051,-0.0839375,-0.165718,0.14592,-0.0931414,-0.17032,0.147454,-0.0618,-0.078,0.1038,-0.057842,-0.0781954,0.101499,2.08695,0.826364,0.0915099,-1.42161,-1.52007,-0.0508309
-0.0901776,-0.166104,0.168432,-0.0839375,-0.16591,0.146208,-0.0931414,-0.170512,0.147742,-0.063,-0.0738,0.1029,-0.0581209,-0.0782354,0.101312,2.09652,0.83045,0.0919636,-1.415,-1.51889,-0.0506142
-0.0904124,-0.166341,0.168811,-0.0839854,-0.166101,0.146495,-0.0931893,-0.170703,0.148029,-0.0588,-0.0699,0.1059,-0.0538071,-0.0799416,0.107471,2.10559,0.834315,0.0923919,-1.40985,-1.51823,-0.0504382
-0.0906453,-0.166579,0.169188,-0.0839854,-0.166341,0.146783,-0.0931893,-0.170943,0.148317,-0.057,-0.075,0.0978,-0.0590773,-0.0757463,0.0998937,2.11414,0.837949,0.0927944,-1.40435,-1.51771,-0.0502677
-0.0908763,-0.166819,0.169563,-0.0840334,-0.166533,0.14707,-0.0932373,-0.171135,0.148604,-0.0549,-0.078,0.1029,-0.0568605,-0.0811158,0.103937,2.12217,0.841363,0.0931712,-1.40003,-1.51735,-0.0501057
-0.0911053,-0.167061,0.169936,-0.0840334,-0.166677,0.14731,-0.0932373,-0.171279,0.148844,-0.0528,-0.0759,0.1038,-0.0630015,-0.0860312,0.100208,2.1297,0.844557,0.093522,-1.39476,-1.51638,-0.0499206
-0.0913325,-0.167305,0.170307,-0.0840813,-0.166916,0.147646,-0.0932852,-0.171518,0.14918,-0.054,-0.0798,0.099,-0.0624367,-0.0787337,0.0985566,2.13668,0.847511,0.0938466,-1.39165,-1.51669,-0.0497772
-0.0915578,-0.16755,0.170676,-0.0825953,-0.167108,0.147885,-0.0933331,-0.17171,0.149419,-0.057,-0.0798,0.096,0.358707,-0.0626088,0.103036,2.14315,0.850241,0.094145,-1.35467,-1.50456,-0.0486263
-0.0917811,-0.167797,0.171043,-0.0826432,-0.1673,0.148221,-0.0933811,-0.171902,0.149755,-0.057,-0.0879,0.1059,-0.026411,-0.0828264,0.0977756,2.14909,0.852741,0.0944169,-1.35203,-1.50467,-0.0484672
-0.0920026,-0.168045,0.171409,-0.0826912,-0.167492,0.148509,-0.093429,-0.172093,0.150042,-0.057,-0.0798,0.0939,-0.0284286,-0.0829046,0.0979033,2.1545,0.855008,0.0946622,-1.34986,-1.50496,-0.0483498
-0.0922221,-0.168296,0.171772,-0.0827391,-0.167635,0.148796,-0.093477,-0.172237,0.15033,0.1059,-0.0738,0.1008,-0.0303664,-0.0880395,0.100532,2.15939,0.857049,0.0948808,-1.34777,-1.505,-0.0482048
-0.0924396,-0.168548,0.172133,-0.0827391,-0.167875,0.149132,-0.093477,-0.172477,0.150666,0.1218,-0.081,0.0999,-0.0407921,-0.0800817,0.0975283,2.16372,0.858843,0.0950724,-1.34578,-1.50561,-0.0480725
-0.0926553,-0.168801,0.172492,-0.0827391,-0.168402,0.149947,-0.093477,-0.173004,0.151481,-0.0228,-0.0828,0.099,-0.0845808,-0.0568421,0.0844395,2.16748,0.860371,0.0952366,-1.34709,-1.50925,-0.047849
-0.092869,-0.169057,0.172849,-0.0826432,-0.168594,0.150282,-0.0933811,-0.173196,0.151816,-0.0219,-0.084,0.0888,-0.0692365,-0.0835596,0.0949821,2.17074,0.8617,0.0953742,-1.34375,-1.50929,-0.0476329
-0.0930807,-0.169314,0.173204,-0.0840813,-0.168834,0.150618,-0.0932852,-0.173436,0.152152,-0.0318,-0.0828,0.1008,-0.491002,-0.0994181,0.0965324,2.17345,0.862786,0.0954844,-1.37495,-1.5213,-0.0485602
-0.0932906,-0.169573,0.173557,-0.0839854,-0.168978,0.150905,-0.0931893,-0.17358,0.152439,-0.066,-0.0669,0.09,-0.106825,-0.0898038,0.0976017,2.17562,0.863645,0.0955674,-1.37188,-1.52094,-0.0483577
-0.0934984,-0.169834,0.173908,-0.0838896,-0.169169,0.151193,-0.0930935,-0.173771,0.152727,-0.072,-0.0678,0.084,-0.106337,-0.0870755,0.096122,2.17725,0.86426,0.095623,-1.36946,-1.52105,-0.0481923
-0.0937044,-0.170096,0.174257,-0.0838416,-0.169409,0.151529,-0.0930455,-0.174011,0.153063,-0.2739,-0.0999,0.0879,-0.102267,-0.0847428,0.0980773,2.17832,0.864629,0.0956509,-1.36877,-1.522,-0.0480644
-0.0939084,-0.17036,0.174604,-0.0837937,-0.169553,0.151816,-0.0929976,-0.174155,0.15335,-0.315,-0.0948,0.0948,-0.09556,-0.0939201,0.097997,2.17885,0.864769,0.0956513,-1.36759,-1.52222,-0.0478901
-0.0941104,-0.170626,0.174949,-0.0837937,-0.169792,0.152152,-0.0929976,-0.174394,0.153686,-0.027,-0.0879,0.0918,-0.0863897,-0.0870021,0.0968939,2.17882,0.864657,0.0956238,-1.36837,-1.52378,-0.0477633
-0.0943105,-0.170893,0.175291,-0.0838896,-0.169936,0.152439,-0.0930935,-0.174538,0.153973,-0.0999,-0.084,0.096,-0.0626611,-0.0977477,0.0997723,2.17824,0.864315,0.0955687,-1.37062,-1.52575,-0.0476014
-0.0945087,-0.171162,0.175632,-0.0840813,-0.170176,0.152727,-0.0932852,-0.174778,0.154261,-0.0978,-0.0849,0.09,-0.0574704,-0.0920371,0.0950843,2.1771,0.863718,0.0954856,-1.37624,-1.52991,-0.0475475
-0.0947049,-0.171433,0.17597,-0.0843689,-0.170368,0.153063,-0.0935728,-0.17497,0.154596,-0.0888,-0.0879,0.093,-0.0533811,-0.0995547,0.0931606,2.17541,0.862885,0.0953746,-1.38429,-1.53481,-0.0474985
-0.0948992,-0.171706,0.176307,-0.0846566,-0.170607,0.153398,-0.0938604,-0.175209,0.154932,-0.0648,-0.0918,0.0939,-0.060651,-0.0964339,0.0938037,2.17316,0.861803,0.0952356,-1.39333,-1.54028,-0.0475119
-0.0950915,-0.17198,0.176641,-0.0834102,-0.170799,0.153686,-0.0941481,-0.175401,0.15522,-0.0549,-0.0918,0.0978,0.352637,-0.0769578,0.0936743,2.17036,0.860484,0.0950686,-1.36911,-1.5307,-0.046797
-0.0952819,-0.172256,0.176973,-0.0836499,-0.171039,0.154021,-0.0943878,-0.175641,0.155555,-0.0579,-0.0918,0.093,-0.0402774,-0.0959932,0.0908508,2.16699,0.858914,0.0948734,-1.37841,-1.53556,-0.0468916
-0.0954703,-0.172534,0.177303,-0.0839854,-0.171231,0.154261,-0.0947233,-0.175833,0.155795,-0.06,-0.093,0.0909,-0.0383996,-0.102825,0.093782,2.16307,0.857106,0.0946502,-1.39028,-1.54094,-0.0471335
-0.0956568,-0.172814,0.177631,-0.0842731,-0.17147,0.154549,-0.0950109,-0.176072,0.156083,0.1008,-0.078,0.0939,-0.0477853,-0.0992801,0.0923763,2.15858,0.855048,0.0943988,-1.40194,-1.54634,-0.0473711
-0.0958414,-0.173095,0.177957,-0.0845128,-0.171662,0.154788,-0.0952506,-0.176264,0.156322,0.189,-0.0798,0.0909,-0.0580374,-0.103542,0.0965577,2.15354,0.852751,0.0941192,-1.41277,-1.55098,-0.0476093
-0.096024,-0.173378,0.178281,-0.0847045,-0.171902,0.155124,-0.0954424,-0.176504,0.156658,-0.0558,-0.1059,0.0909,-0.0737416,-0.100613,0.0878474,2.14794,0.850205,0.0938114,-1.42362,-1.55553,-0.0478473
-0.0962047,-0.173663,0.178603,-0.0848962,-0.170607,0.155411,-0.0956341,-0.176743,0.156945,-0.0468,-0.0948,0.09,-0.0713493,0.237887,0.0934418,2.14201,0.84762,0.0934779,-1.427,-1.54755,-0.0474577
-0.0963835,-0.173949,0.178922,-0.0849921,-0.170847,0.155651,-0.09573,-0.176983,0.157185,-0.0519,-0.102,0.0939,-0.096964,-0.0767182,-0.098835,2.13528,0.844583,0.0931137,-1.43671,-1.55227,-0.047667
-0.0965603,-0.174237,0.17924,-0.085088,-0.171087,0.155939,-0.0958259,-0.177223,0.157473,-0.0669,-0.0999,0.0909,-0.0994795,-0.0772778,0.059508,2.128,0.841303,0.0927212,-1.44643,-1.55673,-0.0478407
-0.0967352,-0.174527,0.179555,-0.0851359,-0.171374,0.156322,-0.0958738,-0.17751,0.157856,-0.0699,0.1008,0.09,-0.108073,-0.0736273,0.0539606,2.12016,0.837774,0.0923005,-1.45583,-1.56137,-0.0479451
-0.0969082,-0.174818,0.179868,-0.0851359,-0.171614,0.15661,-0.0958738,-0.17775,0.158144,-0.0849,0.039,0.003,-0.109319,-0.0810034,0.0599821,2.11176,0.834006,0.0918516,-1.46423,-1.56545,-0.0480525
